Time (s)	Temperature_0	Temperature_1	Temperature_2	Pyranometer (mV)
3.581	25.438	28.115	25.220	0.000
5.581	25.453	28.120	25.214	0.000
7.579	25.459	28.132	25.213	0.000
8.579	25.472	28.129	25.227	0.000
9.579	25.483	28.142	25.224	0.000
10.579	25.494	28.134	25.214	0.000
11.579	25.489	28.144	25.216	0.000
12.579	25.510	28.146	25.216	0.000
13.580	25.508	28.141	25.216	0.000
14.580	25.519	28.157	25.201	0.000
16.580	25.525	28.149	25.206	0.000
18.579	25.547	28.149	25.217	0.000
19.581	25.545	28.173	25.213	0.000
21.580	25.561	28.157	25.220	0.000
23.580	25.567	28.169	25.217	0.000
24.580	25.584	28.172	25.211	0.000
26.579	25.598	28.163	25.218	1.000
27.580	25.606	28.170	25.216	1.000
28.580	25.612	28.165	25.220	1.000
30.580	25.646	28.161	25.230	1.000
32.580	25.673	28.173	25.223	1.000
34.580	25.728	28.186	25.221	1.000
35.580	25.750	28.192	25.214	1.000
37.579	25.797	28.201	25.221	1.000
38.579	25.821	28.201	25.238	1.000
39.579	25.857	28.207	25.224	1.000
40.579	25.899	28.224	25.227	1.000
41.579	25.917	28.227	25.239	1.000
42.579	25.972	28.240	25.224	1.000
43.579	25.981	28.243	25.235	1.000
44.579	26.048	28.240	25.247	1.000
45.579	26.086	28.262	25.247	1.000
46.579	26.114	28.286	25.241	1.000
47.579	26.160	28.277	25.235	1.000
48.579	26.203	28.301	25.255	1.000
49.579	26.251	28.300	25.254	1.000
50.579	26.304	28.316	25.254	1.000
51.579	26.348	28.331	25.247	1.000
52.579	26.391	28.344	25.268	1.000
53.579	26.449	28.350	25.261	1.000
54.580	26.506	28.382	25.267	1.000
55.580	26.542	28.386	25.268	1.000
56.580	26.594	28.399	25.258	1.000
57.580	26.662	28.417	25.280	1.000
58.580	26.713	28.438	25.269	1.000
60.580	26.817	28.462	25.270	1.000
61.580	26.883	28.485	25.270	1.000
62.580	26.938	28.503	25.286	1.000
63.580	26.987	28.509	25.278	1.000
64.580	27.045	28.533	25.299	1.000
65.580	27.102	28.552	25.276	1.000
67.580	27.215	28.573	25.283	1.000
69.578	27.344	28.610	25.299	1.000
70.578	27.377	28.631	25.302	1.000
71.579	27.463	28.646	25.311	1.000
72.579	27.522	28.646	25.301	1.000
73.579	27.592	28.672	25.306	1.000
74.579	27.670	28.677	25.307	1.000
75.579	27.712	28.692	25.325	1.000
76.579	27.764	28.702	25.323	1.000
77.579	27.837	28.723	25.321	1.000
78.579	27.889	28.757	25.329	1.000
79.579	27.954	28.758	25.327	1.000
80.579	28.022	28.776	25.327	1.000
81.579	28.080	28.782	25.325	1.000
82.579	28.158	28.799	25.322	1.000
83.579	28.217	28.823	25.336	1.000
84.579	28.272	28.831	25.330	1.000
85.579	28.349	28.844	25.344	1.000
87.579	28.464	28.871	25.352	1.000
88.579	28.533	28.879	25.348	1.000
89.580	28.597	28.898	25.348	1.000
90.580	28.657	28.907	25.370	1.000
92.580	28.782	28.940	25.361	1.000
93.580	28.855	28.941	25.373	1.000
95.580	28.979	28.985	25.374	1.000
97.580	29.102	28.989	25.387	1.000
98.580	29.181	29.021	25.380	1.000
100.578	29.301	29.042	25.392	1.000
101.578	29.365	29.056	25.396	1.000
102.578	29.420	29.063	25.408	1.000
103.578	29.484	29.091	25.394	1.000
104.578	29.547	29.089	25.411	1.000
105.578	29.612	29.103	25.412	1.000
106.579	29.688	29.109	25.431	1.000
107.579	29.747	29.131	25.432	1.000
108.579	29.802	29.141	25.420	1.000
109.579	29.860	29.141	25.428	1.000
110.579	29.933	29.168	25.436	1.000
111.579	29.999	29.173	25.444	1.000
112.579	30.064	29.177	25.456	1.000
113.579	30.130	29.200	25.449	1.000
114.580	30.184	29.211	25.458	1.000
116.579	30.321	29.236	25.469	1.000
117.579	30.384	29.245	25.464	1.000
118.579	30.441	29.260	25.465	1.000
120.579	30.558	29.282	25.488	1.000
121.579	30.610	29.295	25.491	1.000
122.579	30.679	29.314	25.474	1.000
123.579	30.726	29.303	25.487	1.000
124.580	30.798	29.319	25.497	1.000
125.580	30.872	29.327	25.504	1.000
126.580	30.907	29.351	25.502	1.000
127.580	30.978	29.361	25.501	1.000
128.580	31.053	29.374	25.517	1.000
130.580	31.162	29.404	25.520	1.000
131.580	31.218	29.405	25.516	1.000
133.578	31.338	29.433	25.527	1.000
134.579	31.419	29.451	25.543	1.000
136.578	31.513	29.462	25.547	1.000
137.578	31.582	29.475	25.561	1.000
138.578	31.650	29.490	25.548	1.000
139.579	31.688	29.500	25.556	1.000
141.579	31.819	29.515	25.572	1.000
142.579	31.881	29.536	25.586	1.000
143.579	31.929	29.532	25.577	1.000
144.580	31.995	29.559	25.571	1.000
146.579	32.104	29.570	25.587	1.000
147.579	32.175	29.577	25.609	1.000
148.579	32.224	29.586	25.601	1.000
149.579	32.273	29.614	25.619	1.000
150.579	32.341	29.612	25.611	1.000
151.579	32.407	29.639	25.629	1.000
152.579	32.450	29.626	25.621	1.000
153.579	32.516	29.642	25.633	1.000
155.579	32.636	29.672	25.643	1.000
156.579	32.675	29.680	25.645	1.000
157.579	32.723	29.693	25.665	1.000
159.580	32.845	29.700	25.669	1.000
160.580	32.901	29.719	25.674	1.000
161.580	32.948	29.725	25.673	1.000
162.580	32.993	29.740	25.669	1.000
164.579	33.114	29.763	25.700	1.000
166.579	33.233	29.774	25.696	1.000
168.579	33.326	29.786	25.713	1.000
169.579	33.393	29.807	25.711	1.000
170.579	33.447	29.808	25.710	1.000
171.579	33.480	29.823	25.730	1.000
173.579	33.600	29.843	25.731	1.000
175.578	33.703	29.854	25.756	1.000
176.580	33.747	29.859	25.758	1.000
178.579	33.859	29.886	25.776	1.000
179.579	33.907	29.898	25.771	1.000
181.579	34.002	29.915	25.787	1.000
182.579	34.064	29.928	25.784	1.000
183.579	34.121	29.940	25.798	1.000
185.579	34.224	29.945	25.817	1.000
186.579	34.263	29.975	25.806	1.000
187.579	34.320	29.983	25.814	1.000
188.579	34.375	29.979	25.811	1.000
190.578	34.470	29.990	25.820	1.000
191.579	34.511	30.011	25.824	1.000
192.579	34.584	30.026	25.842	1.000
193.579	34.603	30.015	25.853	1.000
194.580	34.653	30.038	25.850	1.000
196.578	34.780	30.060	25.864	1.000
197.578	34.814	30.042	25.861	1.000
198.578	34.861	30.077	25.882	1.000
199.578	34.913	30.074	25.887	1.000
200.579	34.961	30.089	25.872	1.000
202.578	35.058	30.118	25.898	1.000
203.579	35.093	30.115	25.899	1.000
204.579	35.150	30.129	25.906	1.000
205.579	35.187	30.149	25.905	1.000
206.579	35.231	30.151	25.912	1.000
208.579	35.333	30.161	25.935	1.000
210.578	35.420	30.175	25.946	1.000
211.579	35.469	30.196	25.943	1.000
212.579	35.516	30.199	25.956	1.000
213.579	35.555	30.205	25.956	1.000
214.579	35.605	30.224	25.961	1.000
216.579	35.695	30.234	25.974	1.000
217.579	35.756	30.238	25.974	1.000
218.579	35.796	30.251	25.996	1.000
219.579	35.827	30.265	25.987	1.000
220.579	35.867	30.268	25.995	1.000
221.579	35.923	30.297	26.011	1.000
222.579	35.968	30.286	25.997	1.000
223.579	36.014	30.298	25.992	1.000
225.579	36.092	30.295	26.025	1.000
226.579	36.147	30.318	26.029	1.000
227.579	36.182	30.320	26.023	1.000
229.578	36.272	30.329	26.030	1.000
230.579	36.318	30.352	26.057	1.000
232.579	36.397	30.370	26.056	1.000
234.579	36.496	30.385	26.055	1.000
235.579	36.520	30.394	26.078	1.000
236.579	36.568	30.396	26.085	1.000
238.578	36.654	30.421	26.091	1.000
239.579	36.681	30.417	26.095	1.000
241.578	36.762	30.434	26.093	1.000
242.578	36.806	30.442	26.098	1.000
243.578	36.859	30.459	26.123	1.000
244.578	36.881	30.453	26.123	1.000
245.578	36.915	30.455	26.121	1.000
246.578	36.966	30.470	26.139	1.000
247.579	36.997	30.485	26.132	1.000
248.579	37.042	30.488	26.126	1.000
249.579	37.089	30.497	26.134	1.000
250.579	37.123	30.508	26.140	1.000
251.579	37.153	30.517	26.160	1.000
252.579	37.198	30.513	26.173	1.000
253.579	37.226	30.523	26.172	1.000
254.579	37.266	30.537	26.183	1.000
255.579	37.310	30.538	26.181	1.000
257.579	37.369	30.550	26.183	1.000
259.578	37.456	30.560	26.185	1.000
260.578	37.485	30.562	26.210	1.000
262.577	37.560	30.582	26.224	1.000
263.578	37.596	30.596	26.216	1.000
264.578	37.619	30.596	26.224	1.000
265.578	37.658	30.606	26.225	1.000
266.578	37.695	30.613	26.217	1.000
267.578	37.737	30.599	26.213	1.000
268.578	37.772	30.629	26.208	1.000
269.579	37.788	30.629	26.208	1.000
270.579	37.836	30.639	26.211	1.000
272.578	37.896	30.647	26.211	1.000
273.579	37.934	30.656	26.215	1.000
275.578	38.005	30.675	26.210	1.000
276.578	38.030	30.677	26.227	1.000
277.578	38.073	30.686	26.219	1.000
278.578	38.100	30.702	26.223	1.000
279.578	38.137	30.713	26.231	1.000
280.578	38.162	30.702	26.224	1.000
281.579	38.194	30.706	26.234	1.000
282.579	38.233	30.716	26.242	1.000
283.579	38.257	30.729	26.231	1.000
285.579	38.323	30.740	26.268	1.000
286.579	38.355	30.741	26.244	1.000
287.579	38.379	30.750	26.259	1.000
288.579	38.413	30.752	26.259	1.000
289.579	38.442	30.759	26.262	1.000
290.579	38.479	30.773	26.276	1.000
291.579	38.506	30.769	26.271	1.000
293.577	38.566	30.784	26.275	1.000
294.578	38.605	30.796	26.286	1.000
296.577	38.665	30.809	26.289	1.000
297.577	38.691	30.810	26.296	1.000
298.577	38.714	30.833	26.291	1.000
299.578	38.748	30.821	26.313	1.000
300.578	38.776	30.836	26.305	1.000
301.578	38.824	30.832	26.305	1.000
302.578	38.838	30.842	26.326	1.000
303.578	38.858	30.850	26.320	1.000
304.578	38.880	30.867	26.328	1.000
305.579	38.917	30.874	26.336	1.000
306.579	38.955	30.875	26.333	1.000
308.578	39.002	30.871	26.348	1.000
310.578	39.071	30.899	26.355	1.000
312.578	39.124	30.899	26.377	1.000
313.578	39.154	30.913	26.369	1.000
314.578	39.178	30.922	26.370	1.000
315.578	39.208	30.927	26.395	1.000
316.579	39.249	30.933	26.382	1.000
317.579	39.263	30.944	26.395	1.000
318.579	39.287	30.948	26.411	1.000
319.579	39.304	30.948	26.407	1.000
321.579	39.363	30.957	26.430	1.000
322.579	39.389	30.975	26.416	1.000
323.579	39.435	30.981	26.432	1.000
325.577	39.488	30.990	26.442	1.000
326.577	39.507	30.993	26.441	1.000
327.577	39.536	31.000	26.456	1.000
328.577	39.561	31.008	26.455	1.000
329.578	39.588	31.009	26.454	1.000
330.578	39.636	31.022	26.476	1.000
331.578	39.634	31.025	26.474	1.000
333.578	39.688	31.040	26.482	1.000
334.579	39.721	31.056	26.468	1.000
335.579	39.738	31.054	26.484	1.000
336.579	39.775	31.067	26.488	1.000
337.579	39.806	31.062	26.506	1.000
338.579	39.820	31.079	26.502	1.000
339.579	39.849	31.080	26.515	1.000
341.577	39.890	31.098	26.511	1.000
342.578	39.942	31.112	26.531	1.000
343.578	39.948	31.117	26.517	1.000
345.577	40.002	31.109	26.539	1.000
346.578	40.025	31.133	26.542	1.000
348.577	40.060	31.140	26.551	1.000
349.578	40.105	31.136	26.562	1.000
351.578	40.146	31.154	26.576	1.000
352.579	40.172	31.163	26.564	1.000
354.579	40.220	31.182	26.597	1.000
355.579	40.247	31.182	26.594	1.000
357.577	40.301	31.190	26.603	1.000
358.577	40.329	31.198	26.595	1.000
359.577	40.341	31.198	26.610	1.000
360.577	40.365	31.222	26.603	1.000
361.577	40.382	31.228	26.602	1.000
362.577	40.423	31.221	26.610	1.000
363.577	40.434	31.233	26.620	1.000
364.577	40.466	31.237	26.632	1.000
365.577	40.489	31.233	26.631	1.000
366.577	40.512	31.238	26.635	1.000
367.577	40.532	31.259	26.636	1.000
368.577	40.559	31.261	26.634	1.000
369.578	40.579	31.260	26.649	1.000
370.578	40.600	31.268	26.650	1.000
371.579	40.634	31.282	26.656	1.000
373.578	40.663	31.286	26.682	1.000
375.577	40.712	31.300	26.667	1.000
376.578	40.748	31.321	26.697	1.000
378.577	40.789	31.314	26.692	1.000
379.577	40.803	31.324	26.690	1.000
380.577	40.830	31.334	26.697	1.000
381.578	40.855	31.348	26.705	1.000
382.578	40.884	31.348	26.710	1.000
383.578	40.900	31.355	26.706	1.000
384.578	40.932	31.342	26.718	1.000
385.578	40.939	31.372	26.736	1.000
386.579	40.970	31.377	26.728	1.000
387.579	40.989	31.391	26.734	1.000
389.577	41.028	31.398	26.753	1.000
390.577	41.052	31.408	26.758	1.000
391.577	41.085	31.409	26.758	1.000
392.577	41.110	31.399	26.765	1.000
393.577	41.116	31.426	26.768	1.000
394.577	41.144	31.432	26.773	1.000
395.577	41.172	31.439	26.777	1.000
396.577	41.176	31.438	26.787	1.000
397.577	41.198	31.440	26.774	1.000
398.577	41.233	31.448	26.788	1.000
399.577	41.251	31.464	26.787	1.000
400.577	41.273	31.464	26.796	1.000
401.577	41.286	31.469	26.800	1.000
402.578	41.313	31.474	26.800	1.000
404.577	41.349	31.497	26.805	1.000
405.577	41.368	31.497	26.822	1.000
406.578	41.408	31.486	26.829	1.000
408.577	41.429	31.504	26.834	1.000
409.578	41.454	31.516	26.834	1.000
410.578	41.468	31.511	26.841	1.000
412.578	41.534	31.526	26.842	1.000
414.578	41.565	31.537	26.853	1.000
415.578	41.584	31.556	26.857	1.000
417.578	41.621	31.557	26.867	1.000
419.578	41.655	31.578	26.882	1.000
421.577	41.697	31.581	26.901	1.000
422.577	41.725	31.575	26.899	1.000
423.577	41.739	31.607	26.892	1.000
424.577	41.762	31.603	26.910	1.000
425.577	41.763	31.611	26.909	1.000
426.577	41.792	31.609	26.919	1.000
427.577	41.824	31.622	26.906	1.000
428.577	41.830	31.627	26.906	1.000
429.577	41.848	31.642	26.927	1.000
430.577	41.874	31.641	26.928	1.000
431.577	41.895	31.634	26.934	1.000
432.577	41.903	31.659	26.939	1.000
433.577	41.935	31.648	26.953	1.000
434.578	41.934	31.651	26.953	1.000
436.577	41.983	31.662	26.954	1.000
437.577	42.000	31.683	26.955	1.000
439.578	42.027	31.691	26.970	1.000
441.578	42.066	31.709	26.999	1.000
442.578	42.094	31.718	26.985	1.000
443.578	42.111	31.715	27.001	1.000
445.578	42.138	31.710	26.997	1.000
447.577	42.197	31.736	27.006	1.000
448.578	42.198	31.741	27.021	1.000
450.577	42.229	31.770	27.020	1.000
451.578	42.260	31.760	27.031	1.000
453.576	42.292	31.770	27.036	1.000
454.576	42.302	31.777	27.046	1.000
455.576	42.317	31.773	27.047	1.000
456.578	42.345	31.787	27.051	1.000
458.577	42.369	31.803	27.067	1.000
459.578	42.392	31.806	27.060	1.000
461.577	42.409	31.799	27.071	1.000
462.578	42.437	31.825	27.078	1.000
464.577	42.480	31.843	27.092	1.000
465.577	42.495	31.842	27.091	1.000
466.577	42.507	31.845	27.090	1.000
467.577	42.515	31.843	27.106	1.000
468.577	42.537	31.842	27.106	1.000
470.577	42.561	31.861	27.120	1.000
471.577	42.588	31.879	27.130	1.000
472.577	42.606	31.872	27.117	1.000
473.577	42.608	31.873	27.111	1.000
474.577	42.619	31.874	27.121	1.000
475.577	42.662	31.894	27.132	1.000
476.578	42.666	31.889	27.129	1.000
478.578	42.678	31.915	27.135	1.000
479.578	42.712	31.912	27.141	1.000
481.578	42.737	31.928	27.150	1.000
482.578	42.745	31.922	27.151	1.000
483.578	42.775	31.935	27.153	1.000
485.577	42.794	31.932	27.156	1.000
487.576	42.834	31.962	27.179	1.000
488.577	42.851	31.968	27.173	1.000
489.577	42.862	31.959	27.172	1.000
491.578	42.883	31.972	27.181	1.000
493.577	42.917	31.986	27.205	1.000
494.577	42.943	31.986	27.200	1.000
495.577	42.935	31.984	27.194	1.000
496.577	42.962	32.008	27.210	1.000
497.577	42.977	32.010	27.203	1.000
498.577	42.997	32.002	27.219	1.000
499.577	43.005	32.021	27.228	1.000
500.577	43.015	32.025	27.231	1.000
501.577	43.038	32.020	27.247	1.000
502.577	43.044	32.040	27.223	1.000
503.577	43.065	32.035	27.236	1.000
505.576	43.085	32.049	27.242	1.000
506.576	43.108	32.054	27.241	1.000
507.577	43.116	32.056	27.256	1.000
508.578	43.128	32.057	27.256	1.000
510.577	43.166	32.067	27.280	1.000
511.578	43.178	32.087	27.262	1.000
512.578	43.188	32.083	27.278	1.000
514.578	43.226	32.085	27.284	1.000
515.578	43.243	32.104	27.279	1.000
517.576	43.265	32.111	27.290	1.000
518.576	43.258	32.125	27.299	1.000
519.577	43.272	32.116	27.307	1.000
521.576	43.301	32.126	27.294	1.000
522.576	43.312	32.138	27.304	1.000
523.576	43.338	32.137	27.319	1.000
524.577	43.338	32.149	27.310	1.000
526.577	43.354	32.160	27.329	1.000
527.577	43.389	32.159	27.333	1.000
528.577	43.391	32.158	27.323	1.000
529.577	43.403	32.177	27.331	1.000
530.577	43.412	32.175	27.332	1.000
531.577	43.436	32.170	27.355	1.000
532.577	43.441	32.177	27.354	1.000
533.577	43.458	32.181	27.346	1.000
534.577	43.458	32.189	27.350	1.000
535.577	43.482	32.199	27.356	1.000
536.577	43.496	32.192	27.355	1.000
537.577	43.515	32.198	27.369	1.000
538.577	43.518	32.210	27.365	1.000
539.577	43.535	32.208	27.371	1.000
540.577	43.554	32.224	27.384	1.000
541.577	43.547	32.232	27.382	1.000
543.578	43.558	32.232	27.390	1.000
545.578	43.591	32.247	27.399	1.000
546.578	43.610	32.245	27.401	1.000
547.578	43.628	32.244	27.418	1.000
548.578	43.623	32.246	27.406	1.000
550.576	43.646	32.273	27.413	1.000
551.577	43.674	32.270	27.412	1.000
553.576	43.687	32.277	27.420	1.000
554.576	43.690	32.289	27.435	1.000
555.577	43.708	32.287	27.421	1.000
557.576	43.722	32.307	27.428	1.000
558.576	43.742	32.302	27.448	1.000
559.576	43.760	32.309	27.436	1.000
560.576	43.754	32.313	27.444	1.000
561.577	43.773	32.316	27.450	1.000
562.577	43.773	32.312	27.456	1.000
563.577	43.787	32.326	27.456	1.000
564.577	43.817	32.332	27.456	1.000
565.577	43.810	32.340	27.471	1.000
566.577	43.835	32.334	27.476	1.000
567.577	43.842	32.352	27.472	1.000
568.577	43.840	32.350	27.471	1.000
569.577	43.863	32.365	27.476	1.000
570.577	43.870	32.361	27.494	1.000
571.577	43.897	32.352	27.487	1.000
572.577	43.896	32.377	27.500	1.000
573.577	43.930	32.386	27.499	1.000
574.577	43.921	32.392	27.497	1.000
576.577	43.944	32.413	27.511	1.000
577.577	43.960	32.411	27.514	1.000
578.577	43.950	32.389	27.514	1.000
579.578	43.969	32.408	27.524	1.000
580.578	43.989	32.420	27.519	1.000
582.576	43.994	32.429	27.547	1.000
583.576	44.021	32.424	27.541	1.000
584.577	44.022	32.436	27.533	1.000
585.577	44.039	32.445	27.545	1.000
587.576	44.058	32.444	27.551	1.000
588.576	44.074	32.459	27.550	1.000
589.576	44.088	32.462	27.555	1.000
590.576	44.095	32.453	27.557	1.000
591.576	44.103	32.476	27.566	1.000
592.576	44.114	32.474	27.565	1.000
593.576	44.115	32.481	27.592	1.000
594.576	44.139	32.493	27.580	1.000
595.576	44.139	32.488	27.589	1.000
596.577	44.157	32.494	27.580	1.000
597.577	44.169	32.489	27.580	1.000
598.577	44.178	32.502	27.593	1.000
600.576	44.188	32.512	27.600	1.000
601.577	44.207	32.513	27.619	1.000
602.577	44.216	32.526	27.604	1.000
603.577	44.226	32.533	27.615	1.000
604.577	44.227	32.536	27.614	1.000
606.576	44.247	32.541	27.611	1.000
607.577	44.265	32.564	27.631	1.000
608.577	44.266	32.559	27.631	1.000
610.577	44.292	32.565	27.636	1.000
612.577	44.307	32.579	27.649	1.000
614.577	44.335	32.579	27.660	1.000
616.576	44.355	32.596	27.673	1.000
617.577	44.363	32.597	27.663	1.000
618.577	44.367	32.605	27.670	1.000
619.577	44.374	32.612	27.676	1.000
620.577	44.381	32.607	27.674	1.000
621.577	44.396	32.618	27.678	1.000
622.577	44.407	32.621	27.673	1.000
623.577	44.421	32.625	27.684	1.000
624.577	44.427	32.623	27.697	1.000
626.577	44.447	32.637	27.693	1.000
628.576	44.462	32.657	27.692	1.000
630.576	44.484	32.660	27.711	1.000
631.577	44.488	32.673	27.708	1.000
633.577	44.501	32.675	27.712	1.000
634.577	44.517	32.676	27.736	1.000
635.577	44.533	32.678	27.723	1.000
636.577	44.533	32.693	27.735	1.000
637.577	44.540	32.702	27.724	1.000
638.577	44.545	32.695	27.726	1.000
639.577	44.553	32.698	27.742	1.000
640.577	44.566	32.710	27.751	1.000
642.577	44.584	32.720	27.740	1.000
643.577	44.596	32.727	27.760	1.000
645.575	44.605	32.745	27.758	1.000
646.575	44.614	32.738	27.768	1.000
647.575	44.625	32.748	27.760	1.000
648.577	44.643	32.754	27.756	1.000
650.576	44.662	32.762	27.788	1.000
651.576	44.665	32.753	27.771	1.000
652.576	44.671	32.755	27.775	1.000
653.577	44.685	32.769	27.775	1.000
654.577	44.675	32.771	27.800	1.000
655.577	44.698	32.788	27.787	1.000
656.577	44.707	32.786	27.799	1.000
657.577	44.713	32.782	27.779	1.000
659.577	44.732	32.787	27.793	1.000
660.577	44.735	32.781	27.795	1.000
662.575	44.748	32.815	27.805	1.000
663.576	44.758	32.807	27.815	1.000
665.576	44.763	32.824	27.820	1.000
666.577	44.785	32.830	27.798	1.000
667.577	44.789	32.819	27.828	1.000
668.577	44.795	32.846	27.826	1.000
669.577	44.802	32.827	27.833	1.000
670.577	44.815	32.831	27.834	1.000
671.577	44.817	32.835	27.828	1.000
672.577	44.817	32.861	27.826	1.000
673.577	44.836	32.853	27.845	1.000
674.577	44.833	32.860	27.836	1.000
675.577	44.843	32.863	27.840	1.000
676.577	44.862	32.860	27.834	1.000
678.575	44.870	32.876	27.860	1.000
679.576	44.873	32.887	27.854	1.000
680.576	44.889	32.898	27.855	1.000
682.575	44.897	32.889	27.864	1.000
683.577	44.917	32.877	27.868	1.000
685.577	44.921	32.898	27.875	1.000
686.577	44.933	32.915	27.892	1.000
687.577	44.931	32.916	27.888	1.000
689.577	44.935	32.921	27.895	1.000
690.577	44.962	32.932	27.885	1.000
692.575	44.982	32.923	27.892	1.000
693.575	44.977	32.935	27.905	1.000
694.576	44.991	32.933	27.904	1.000
695.576	45.005	32.937	27.899	1.000
696.576	45.002	32.956	27.909	1.000
697.576	45.003	32.950	27.910	1.000
698.576	45.021	32.968	27.907	1.000
699.576	45.015	32.966	27.910	1.000
701.576	45.043	32.964	27.919	1.000
702.576	45.043	32.985	27.916	1.000
703.577	45.055	32.975	27.919	1.000
704.577	45.069	32.988	27.920	1.000
706.577	45.079	32.988	27.943	1.000
707.577	45.086	32.990	27.944	1.000
708.577	45.079	33.002	27.939	1.000
710.576	45.099	33.018	27.932	1.000
712.575	45.121	33.017	27.951	1.000
713.575	45.114	33.026	27.958	1.000
714.575	45.132	33.015	27.951	1.000
715.575	45.140	33.026	27.958	1.000
716.575	45.146	33.032	27.968	1.000
717.575	45.143	33.035	27.964	1.000
718.576	45.157	33.038	27.958	1.000
719.576	45.174	33.046	27.971	1.000
720.577	45.175	33.043	27.982	1.000
721.577	45.172	33.062	27.973	1.000
722.577	45.180	33.054	27.987	1.000
724.577	45.199	33.053	27.986	1.000
726.575	45.203	33.064	27.991	1.000
727.576	45.225	33.068	27.997	1.000
729.575	45.229	33.082	27.998	1.000
730.575	45.235	33.091	27.993	1.000
731.576	45.238	33.093	28.011	1.000
733.576	45.255	33.101	28.006	1.000
734.576	45.278	33.112	28.020	1.000
735.576	45.283	33.118	28.029	1.000
736.577	45.282	33.109	28.011	1.000
737.577	45.289	33.109	28.013	1.000
739.577	45.296	33.125	28.020	1.000
741.575	45.319	33.128	28.034	1.000
742.575	45.314	33.129	28.050	1.000
743.575	45.323	33.145	28.036	1.000
744.575	45.339	33.155	28.037	1.000
745.575	45.308	33.198	28.019	1.000
746.575	45.346	33.163	28.050	1.000
747.575	45.338	33.150	28.047	1.000
748.575	45.360	33.145	28.051	1.000
749.575	45.364	33.159	28.055	1.000
750.576	45.353	33.155	28.057	1.000
752.576	45.371	33.166	28.059	1.000
753.576	45.375	33.165	28.066	1.000
754.576	45.383	33.180	28.070	1.000
755.576	45.393	33.180	28.060	1.000
756.576	45.392	33.177	28.077	1.000
757.576	45.400	33.193	28.071	1.000
758.576	45.410	33.179	28.077	1.000
760.576	45.429	33.198	28.078	1.000
762.575	45.436	33.202	28.074	1.000
763.576	45.425	33.207	28.079	1.000
764.576	45.421	33.206	28.088	1.000
766.576	45.447	33.194	28.088	1.000
767.576	45.452	33.215	28.091	1.000
768.576	45.449	33.224	28.093	1.000
769.576	45.457	33.223	28.095	1.000
770.576	45.474	33.225	28.115	1.000
771.577	45.477	33.240	28.113	1.000
772.577	45.477	33.247	28.106	1.000
774.575	45.482	33.250	28.115	1.000
775.575	45.485	33.246	28.099	1.000
776.575	45.507	33.259	28.127	1.000
777.575	45.506	33.257	28.119	1.000
778.575	45.512	33.247	28.125	1.000
779.575	45.510	33.266	28.122	1.000
780.575	45.510	33.257	28.134	1.000
781.575	45.530	33.269	28.138	1.000
782.575	45.532	33.266	28.128	1.000
783.575	45.528	33.279	28.140	1.000
784.575	45.528	33.267	28.140	1.000
785.576	45.550	33.284	28.145	1.000
787.575	45.552	33.299	28.144	1.000
788.576	45.556	33.300	28.152	1.000
790.575	45.575	33.309	28.148	1.000
791.576	45.567	33.303	28.140	1.000
792.576	45.577	33.300	28.164	1.000
793.576	45.587	33.307	28.164	1.000
795.575	45.595	33.317	28.151	1.000
796.575	45.595	33.315	28.164	1.000
797.575	45.598	33.331	28.156	1.000
798.576	45.614	33.320	28.184	1.000
799.576	45.624	33.347	28.178	1.000
801.576	45.616	33.339	28.185	1.000
802.576	45.631	33.349	28.172	1.000
803.576	45.636	33.357	28.172	1.000
804.576	45.648	33.342	28.178	1.000
806.576	45.657	33.369	28.184	1.000
808.575	45.648	33.367	28.208	1.000
809.575	45.671	33.362	28.204	1.000
810.575	45.675	33.382	28.215	1.000
811.575	45.675	33.369	28.202	1.000
812.575	45.685	33.368	28.221	1.000
813.575	45.681	33.392	28.221	1.000
814.575	45.685	33.393	28.218	1.000
815.576	45.710	33.404	28.223	1.000
817.576	45.719	33.402	28.230	1.000
819.575	45.716	33.410	28.232	1.000
820.576	45.724	33.407	28.220	1.000
822.575	45.747	33.414	28.243	1.000
823.576	45.736	33.429	28.247	1.000
824.576	45.759	33.434	28.242	1.000
826.576	45.760	33.430	28.236	1.000
827.576	45.760	33.439	28.251	1.000
829.576	45.773	33.442	28.255	1.000
831.575	45.776	33.453	28.264	1.000
832.576	45.795	33.448	28.277	1.000
833.576	45.795	33.453	28.267	1.000
834.576	45.787	33.466	28.280	1.000
835.576	45.805	33.473	28.278	1.000
837.574	45.822	33.472	28.281	1.000
838.574	45.826	33.481	28.285	1.000
839.574	45.830	33.486	28.284	1.000
840.574	45.835	33.478	28.278	1.000
841.576	45.833	33.488	28.313	1.000
843.575	45.847	33.505	28.304	1.000
844.575	45.853	33.510	28.314	1.000
845.575	45.866	33.508	28.306	1.000
846.575	45.867	33.519	28.316	1.000
847.575	45.852	33.525	28.325	1.000
848.575	45.870	33.534	28.329	1.000
849.575	45.882	33.524	28.327	1.000
850.575	45.886	33.537	28.344	1.000
851.575	45.904	33.549	28.327	1.000
852.575	45.903	33.539	28.356	1.000
853.575	45.898	33.542	28.336	1.000
855.575	45.926	33.563	28.353	1.000
856.575	45.937	33.550	28.365	1.000
858.575	45.944	33.583	28.359	1.000
859.576	45.955	33.577	28.366	1.000
860.576	45.956	33.572	28.372	1.000
861.576	45.955	33.584	28.361	1.000
862.576	45.961	33.590	28.382	1.000
863.576	45.981	33.592	28.367	1.000
865.576	45.996	33.612	28.379	1.000
867.576	45.992	33.621	28.367	1.000
869.575	46.010	33.616	28.399	1.000
871.574	46.025	33.629	28.396	1.000
872.575	46.018	33.645	28.396	1.000
874.575	46.046	33.630	28.408	1.000
876.575	46.053	33.653	28.412	1.000
877.575	46.052	33.649	28.411	1.000
878.575	46.069	33.663	28.422	1.000
879.576	46.058	33.658	28.417	1.000
881.575	46.065	33.687	28.438	1.000
882.576	46.063	33.684	28.434	1.000
884.575	46.095	33.680	28.448	1.000
885.575	46.086	33.699	28.435	1.000
886.575	46.097	33.700	28.449	1.000
887.575	46.113	33.699	28.453	1.000
889.575	46.105	33.718	28.461	1.000
891.574	46.121	33.732	28.459	1.000
892.575	46.112	33.731	28.463	1.000
893.575	46.131	33.722	28.458	1.000
894.575	46.135	33.733	28.458	1.000
895.575	46.139	33.733	28.465	1.000
896.576	46.146	33.738	28.476	1.000
898.575	46.145	33.756	28.482	1.000
899.575	46.138	33.759	28.479	1.000
900.575	46.161	33.771	28.487	1.000
901.576	46.165	33.770	28.482	1.000
903.575	46.177	33.773	28.502	1.000
905.575	46.190	33.776	28.493	1.000
907.574	46.193	33.781	28.510	1.000
908.575	46.193	33.793	28.506	1.000
910.574	46.194	33.808	28.505	1.000
911.575	46.220	33.798	28.520	1.000
912.575	46.215	33.820	28.526	1.000
913.575	46.216	33.815	28.529	1.000
914.576	46.230	33.826	28.536	1.000
916.575	46.234	33.837	28.526	1.000
917.575	46.227	33.846	28.548	1.000
918.575	46.238	33.832	28.550	1.000
919.575	46.235	33.852	28.555	1.000
920.575	46.247	33.854	28.549	1.000
921.575	46.263	33.860	28.553	1.000
922.575	46.261	33.873	28.565	1.000
923.575	46.264	33.854	28.552	1.000
924.575	46.283	33.876	28.554	1.000
925.575	46.248	33.886	28.556	1.000
926.575	46.283	33.880	28.563	1.000
927.575	46.289	33.885	28.560	1.000
928.575	46.283	33.886	28.572	1.000
929.575	46.307	33.881	28.574	1.000
930.576	46.283	33.919	28.580	1.000
931.576	46.299	33.910	28.594	1.000
933.575	46.308	33.925	28.576	1.000
935.575	46.322	33.930	28.589	1.000
937.574	46.335	33.942	28.598	1.000
938.574	46.320	33.934	28.589	1.000
939.574	46.333	33.939	28.605	1.000
940.574	46.333	33.950	28.612	1.000
941.574	46.341	33.954	28.617	1.000
942.574	46.348	33.950	28.604	1.000
943.574	46.341	33.964	28.622	1.000
944.574	46.353	33.973	28.621	1.000
945.574	46.365	33.974	28.609	1.000
946.575	46.366	33.978	28.622	1.000
947.575	46.371	33.991	28.629	1.000
948.575	46.387	33.984	28.625	1.000
949.575	46.383	33.986	28.637	1.000
950.575	46.378	33.980	28.628	1.000
951.575	46.390	33.999	28.637	1.000
952.575	46.385	34.001	28.640	1.000
953.575	46.399	34.020	28.648	1.000
954.575	46.392	34.013	28.634	1.000
955.575	46.402	34.017	28.645	1.000
956.575	46.395	34.021	28.652	1.000
957.575	46.399	34.028	28.651	1.000
958.575	46.419	34.028	28.661	1.000
959.575	46.407	34.028	28.671	1.000
961.574	46.423	34.042	28.679	1.000
962.574	46.433	34.053	28.673	1.000
963.576	46.435	34.060	28.657	1.000
964.576	46.439	34.049	28.670	1.000
965.576	46.444	34.069	28.679	1.000
967.575	46.462	34.070	28.679	1.000
969.574	46.460	34.082	28.695	1.000
970.575	46.460	34.106	28.705	1.000
971.575	46.455	34.096	28.703	1.000
972.575	46.463	34.097	28.711	1.000
973.575	46.478	34.105	28.707	1.000
975.574	46.499	34.095	28.718	1.000
976.574	46.484	34.116	28.714	1.000
977.574	46.496	34.119	28.719	1.000
978.574	46.495	34.137	28.729	1.000
979.574	46.486	34.127	28.736	1.000
980.574	46.504	34.126	28.718	1.000
981.575	46.503	34.145	28.736	1.000
982.575	46.508	34.156	28.730	1.000
983.575	46.513	34.149	28.741	1.000
984.575	46.520	34.154	28.746	1.000
985.575	46.520	34.165	28.756	1.000
986.575	46.529	34.165	28.757	1.000
987.575	46.537	34.149	28.751	1.000
988.575	46.533	34.179	28.750	1.000
989.575	46.551	34.168	28.760	1.000
990.575	46.547	34.187	28.782	1.000
991.575	46.540	34.183	28.766	1.000
992.575	46.552	34.183	28.769	1.000
993.575	46.557	34.186	28.776	1.000
994.575	46.555	34.199	28.774	1.000
996.575	46.562	34.206	28.772	1.000
997.575	46.574	34.224	28.785	1.000
998.575	46.580	34.210	28.788	1.000
1000.574	46.578	34.228	28.787	1.000
1001.574	46.592	34.232	28.804	1.000
1002.574	46.597	34.229	28.804	1.000
1003.574	46.609	34.240	28.809	1.000
1004.575	46.594	34.239	28.805	1.000
1006.575	46.614	34.245	28.811	1.000
1007.575	46.610	34.255	28.807	1.000
1009.574	46.619	34.258	28.819	1.000
1010.574	46.642	34.268	28.819	1.000
1011.574	46.626	34.267	28.816	1.000
1012.574	46.617	34.279	28.834	1.000
1013.574	46.637	34.278	28.833	1.000
1014.574	46.632	34.269	28.845	1.000
1016.574	46.649	34.290	28.830	1.000
1017.575	46.649	34.291	28.829	1.000
1018.575	46.663	34.294	28.848	1.000
1020.575	46.653	34.310	28.857	1.000
1021.575	46.668	34.307	28.857	1.000
1022.575	46.652	34.315	28.850	1.000
1023.575	46.673	34.309	28.871	1.000
1024.575	46.680	34.316	28.864	1.000
1025.575	46.686	34.320	28.853	1.000
1026.575	46.687	34.347	28.879	1.000
1027.575	46.697	34.342	28.877	1.000
1028.575	46.698	34.344	28.871	1.000
1029.575	46.694	34.349	28.874	1.000
1031.574	46.697	34.357	28.886	1.000
1033.574	46.709	34.369	28.891	1.000
1034.575	46.716	34.360	28.895	1.000
1035.575	46.723	34.375	28.893	1.000
1037.575	46.721	34.381	28.899	1.000
1038.575	46.729	34.383	28.894	1.000
1039.575	46.733	34.379	28.897	1.000
1040.575	46.747	34.401	28.914	1.000
1041.575	46.743	34.391	28.915	1.000
1043.574	46.755	34.394	28.911	1.000
1044.574	46.745	34.404	28.923	1.000
1045.574	46.761	34.427	28.926	1.000
1046.574	46.767	34.415	28.921	1.000
1047.574	46.760	34.423	28.929	1.000
1048.574	46.773	34.432	28.928	1.000
1049.574	46.761	34.437	28.929	1.000
1050.575	46.779	34.434	28.941	1.000
1051.575	46.769	34.441	28.936	1.000
1053.574	46.779	34.446	28.942	1.000
1054.575	46.796	34.449	28.950	1.000
1055.575	46.805	34.464	28.956	1.000
1056.575	46.801	34.459	28.963	1.000
1057.575	46.808	34.473	28.972	1.000
1058.575	46.801	34.472	28.962	1.000
1059.575	46.804	34.476	28.971	1.000
1060.575	46.829	34.471	28.968	1.000
1061.575	46.834	34.474	28.971	1.000
1063.573	46.836	34.484	28.975	1.000
1064.573	46.836	34.501	28.983	1.000
1065.573	46.857	34.486	28.972	1.000
1066.573	46.844	34.507	28.990	1.000
1067.573	46.843	34.522	28.993	1.000
1068.574	46.847	34.512	28.975	1.000
1069.574	46.845	34.527	28.998	1.000
1070.575	46.861	34.524	28.994	1.000
1072.574	46.863	34.534	29.001	1.000
1073.575	46.868	34.541	29.011	1.000
1074.575	46.862	34.535	29.012	1.000
1076.575	46.879	34.550	29.024	1.000
1078.574	46.887	34.562	29.015	1.000
1080.573	46.901	34.563	29.035	1.000
1081.574	46.906	34.560	29.035	1.000
1082.574	46.906	34.561	29.022	1.000
1083.574	46.908	34.574	29.040	1.000
1084.574	46.913	34.580	29.041	1.000
1085.574	46.913	34.591	29.060	1.000
1086.575	46.930	34.599	29.052	1.000
1087.575	46.917	34.584	29.051	1.000
1089.574	46.922	34.595	29.046	1.000
1090.575	46.941	34.616	29.053	1.000
1091.575	46.943	34.611	29.050	1.000
1092.575	46.938	34.605	29.059	1.000
1093.575	46.937	34.625	29.057	1.000
1095.573	46.945	34.629	29.062	1.000
1096.573	46.954	34.632	29.075	1.000
1097.574	46.958	34.635	29.083	1.000
1099.573	46.958	34.638	29.085	1.000
1100.574	46.956	34.645	29.083	1.000
1102.573	46.979	34.650	29.090	1.000
1103.575	46.981	34.658	29.088	1.000
1104.575	46.982	34.661	29.095	1.000
1105.575	46.993	34.662	29.094	1.000
1106.575	46.991	34.671	29.094	1.000
1107.575	47.001	34.679	29.111	1.000
1108.575	46.994	34.674	29.098	1.000
1109.575	46.997	34.688	29.112	1.000
1111.574	47.010	34.680	29.113	1.000
1113.574	47.013	34.699	29.127	1.000
1114.574	47.021	34.699	29.125	1.000
1115.574	47.026	34.698	29.123	1.000
1116.574	47.027	34.707	29.122	1.000
1117.574	47.021	34.707	29.125	1.000
1118.574	47.044	34.723	29.136	1.000
1120.575	47.037	34.719	29.128	1.000
1121.575	47.050	34.727	29.126	1.000
1122.575	47.036	34.726	29.137	1.000
1123.575	47.040	34.738	29.149	1.000
1124.575	47.066	34.738	29.138	1.000
1125.575	47.056	34.745	29.143	1.000
1127.573	47.066	34.758	29.155	1.000
1128.573	47.056	34.747	29.160	1.000
1129.573	47.070	34.755	29.154	1.000
1130.573	47.070	34.746	29.164	1.000
1131.573	47.069	34.762	29.165	1.000
1132.573	47.071	34.756	29.156	1.000
1133.573	47.079	34.762	29.170	1.000
1134.574	47.082	34.764	29.177	1.000
1136.573	47.097	34.787	29.181	1.000
1137.574	47.085	34.775	29.185	1.000
1138.574	47.103	34.802	29.174	1.000
1139.575	47.109	34.794	29.193	1.000
1140.575	47.111	34.790	29.192	1.000
1142.574	47.103	34.808	29.206	1.000
1144.574	47.119	34.811	29.213	1.000
1146.574	47.117	34.815	29.217	1.000
1147.574	47.126	34.824	29.211	1.000
1148.574	47.130	34.831	29.205	1.000
1150.574	47.139	34.839	29.218	1.000
1151.574	47.148	34.846	29.217	1.000
1152.574	47.131	34.846	29.219	1.000
1153.574	47.138	34.849	29.221	1.000
1154.574	47.152	34.848	29.237	1.000
1155.575	47.157	34.851	29.221	1.000
1156.575	47.150	34.847	29.234	1.000
1158.573	47.151	34.863	29.230	1.000
1159.573	47.139	34.873	29.243	1.000
1160.573	47.172	34.868	29.237	1.000
1161.573	47.162	34.877	29.241	1.000
1162.573	47.165	34.883	29.246	1.000
1163.573	47.168	34.893	29.247	1.000
1164.573	47.184	34.886	29.265	1.000
1165.573	47.169	34.908	29.253	1.000
1166.573	47.179	34.895	29.248	1.000
1167.573	47.184	34.902	29.259	1.000
1168.573	47.194	34.898	29.263	1.000
1169.573	47.189	34.906	29.261	1.000
1170.573	47.194	34.923	29.264	1.000
1171.573	47.177	34.919	29.263	1.000
1172.573	47.193	34.921	29.269	1.000
1173.574	47.209	34.920	29.273	1.000
1174.574	47.186	34.925	29.282	1.000
1176.574	47.201	34.942	29.286	1.000
1177.574	47.210	34.928	29.280	1.000
1179.573	47.214	34.937	29.291	1.000
1180.573	47.229	34.940	29.288	1.000
1181.573	47.230	34.958	29.295	1.000
1182.573	47.222	34.958	29.307	1.000
1183.574	47.231	34.973	29.314	1.000
1184.574	47.237	34.965	29.304	1.000
1186.574	47.229	34.963	29.307	1.000
1188.573	47.242	34.982	29.306	1.000
1189.574	47.253	34.984	29.328	1.000
1191.573	47.244	34.983	29.306	1.000
1192.573	47.258	34.984	29.319	1.000
1193.573	47.259	34.991	29.329	1.000
1194.573	47.264	35.008	29.325	1.000
1195.573	47.263	35.009	29.322	1.000
1196.573	47.260	35.021	29.335	1.000
1197.573	47.275	35.012	29.335	1.000
1198.573	47.270	35.011	29.338	1.000
1199.573	47.281	35.023	29.335	1.000
1200.574	47.292	35.024	29.338	1.000
1201.574	47.280	35.029	29.340	1.000
1203.573	47.286	35.027	29.343	1.000
1204.574	47.286	35.035	29.348	1.000
1205.574	47.293	35.056	29.349	1.000
1207.573	47.309	35.056	29.355	1.000
1208.574	47.304	35.050	29.364	1.000
1209.574	47.303	35.057	29.358	1.000
1210.574	47.310	35.073	29.371	1.000
1211.574	47.313	35.057	29.364	1.000
1213.574	47.311	35.070	29.375	1.000
1215.574	47.318	35.077	29.379	1.000
1216.574	47.320	35.077	29.379	1.000
1218.574	47.327	35.094	29.389	1.000
1219.574	47.327	35.095	29.387	1.000
1220.574	47.346	35.096	29.388	1.000
1221.574	47.326	35.101	29.400	1.000
1222.574	47.339	35.099	29.403	1.000
1224.573	47.348	35.106	29.400	1.000
1225.573	47.342	35.116	29.414	1.000
1226.573	47.355	35.126	29.412	1.000
1227.574	47.356	35.123	29.421	1.000
1229.573	47.367	35.135	29.422	1.000
1230.573	47.376	35.128	29.422	1.000
1231.573	47.371	35.132	29.428	1.000
1232.573	47.365	35.140	29.430	1.000
1233.573	47.371	35.147	29.436	1.000
1234.573	47.369	35.153	29.431	1.000
1235.573	47.369	35.144	29.447	1.000
1236.573	47.370	35.150	29.443	1.000
1237.573	47.372	35.162	29.440	1.000
1238.573	47.389	35.163	29.448	1.000
1240.573	47.396	35.184	29.448	1.000
1241.573	47.391	35.159	29.450	1.000
1243.574	47.409	35.193	29.456	1.000
1244.574	47.420	35.180	29.474	1.000
1246.574	47.418	35.182	29.474	1.000
1247.574	47.427	35.206	29.482	1.000
1249.574	47.425	35.213	29.475	1.000
1251.573	47.412	35.205	29.481	1.000
1252.574	47.439	35.225	29.487	1.000
1254.573	47.439	35.223	29.482	1.000
1255.573	47.433	35.228	29.489	1.000
1257.572	47.436	35.247	29.494	1.000
1258.572	47.454	35.245	29.493	1.000
1259.572	47.450	35.249	29.507	1.000
1260.574	47.457	35.244	29.505	1.000
1262.574	47.451	35.247	29.498	1.000
1264.573	47.460	35.260	29.509	1.000
1265.573	47.457	35.262	29.513	1.000
1266.573	47.459	35.265	29.510	1.000
1267.573	47.480	35.270	29.510	1.000
1268.573	47.477	35.261	29.517	1.000
1269.573	47.489	35.263	29.524	1.000
1270.573	47.479	35.275	29.524	1.000
1271.573	47.484	35.283	29.521	1.000
1272.573	47.489	35.300	29.533	1.000
1273.573	47.493	35.289	29.534	1.000
1274.573	47.496	35.289	29.526	1.000
1275.573	47.491	35.300	29.538	1.000
1276.573	47.486	35.296	29.530	1.000
1277.573	47.496	35.320	29.536	1.000
1278.574	47.514	35.306	29.542	1.000
1279.574	47.507	35.312	29.539	1.000
1280.574	47.498	35.313	29.537	1.000
1282.573	47.515	35.330	29.556	1.000
1283.573	47.516	35.335	29.557	1.000
1284.574	47.524	35.334	29.550	1.000
1285.574	47.519	35.335	29.549	1.000
1287.573	47.540	35.332	29.556	1.000
1289.572	47.530	35.341	29.558	1.000
1290.572	47.533	35.349	29.564	1.000
1291.572	47.536	35.347	29.562	1.000
1292.573	47.541	35.357	29.568	1.000
1294.572	47.539	35.356	29.571	1.000
1295.573	47.558	35.365	29.564	1.000
1296.573	47.556	35.364	29.597	1.000
1297.573	47.558	35.373	29.578	1.000
1298.573	47.557	35.378	29.588	1.000
1299.573	47.544	35.377	29.584	1.000
1300.574	47.552	35.380	29.573	1.000
1302.573	47.560	35.385	29.581	1.000
1303.573	47.581	35.392	29.576	1.000
1304.573	47.570	35.403	29.581	1.000
1305.573	47.584	35.413	29.588	1.000
1306.573	47.568	35.398	29.584	1.000
1307.573	47.581	35.407	29.597	1.000
1308.573	47.583	35.395	29.595	1.000
1309.573	47.577	35.399	29.599	1.000
1310.573	47.581	35.409	29.586	1.000
1312.572	47.590	35.419	29.605	1.000
1313.574	47.599	35.426	29.603	1.000
1315.574	47.606	35.432	29.602	1.000
1317.574	47.605	35.435	29.619	1.000
1318.574	47.596	35.438	29.607	1.000
1320.573	47.606	35.449	29.624	1.000
1322.573	47.624	35.448	29.613	1.000
1323.573	47.623	35.455	29.621	1.000
1324.573	47.616	35.454	29.615	1.000
1325.573	47.619	35.463	29.629	1.000
1326.573	47.619	35.471	29.626	1.000
1328.573	47.613	35.468	29.618	1.000
1330.573	47.627	35.473	29.639	1.000
1331.573	47.633	35.491	29.633	1.000
1332.573	47.640	35.492	29.622	1.000
1333.573	47.640	35.476	29.649	1.000
1334.574	47.625	35.497	29.642	1.000
1336.573	47.637	35.506	29.659	1.000
1337.573	47.648	35.501	29.654	1.000
1338.573	47.650	35.497	29.651	1.000
1339.573	47.654	35.508	29.672	1.000
1340.573	47.668	35.515	29.661	1.000
1342.572	47.662	35.528	29.678	1.000
1343.573	47.676	35.514	29.675	1.000
1345.573	47.666	35.527	29.667	1.000
1347.573	47.670	35.540	29.682	1.000
1348.574	47.682	35.539	29.679	1.000
1350.573	47.692	35.549	29.686	1.000
1352.573	47.692	35.552	29.683	1.000
1353.573	47.702	35.566	29.689	1.000
1354.573	47.712	35.561	29.694	1.000
1355.573	47.697	35.576	29.697	1.000
1357.572	47.702	35.571	29.700	1.000
1358.573	47.717	35.589	29.703	1.000
1359.573	47.726	35.582	29.696	1.000
1360.573	47.709	35.583	29.701	1.000
1362.573	47.724	35.592	29.703	1.000
1364.572	47.725	35.603	29.717	1.000
1365.574	47.732	35.597	29.710	1.000
1367.573	47.734	35.605	29.717	1.000
1368.573	47.738	35.607	29.720	1.000
1369.573	47.740	35.612	29.722	1.000
1371.573	47.747	35.624	29.727	1.000
1372.573	47.742	35.620	29.732	1.000
1373.573	47.760	35.638	29.720	1.000
1375.573	47.765	35.630	29.735	1.000
1376.573	47.752	35.647	29.734	1.000
1377.573	47.768	35.633	29.739	1.000
1378.573	47.765	35.658	29.728	1.000
1379.573	47.770	35.648	29.742	1.000
1381.573	47.778	35.664	29.743	1.000
1382.573	47.774	35.664	29.751	1.000
1384.572	47.780	35.669	29.745	1.000
1385.573	47.787	35.650	29.768	1.000
1386.573	47.795	35.669	29.752	1.000
1388.573	47.788	35.683	29.754	1.000
1389.573	47.797	35.679	29.759	1.000
1391.573	47.798	35.693	29.758	1.000
1392.573	47.805	35.685	29.759	1.000
1394.572	47.795	35.702	29.761	1.000
1395.573	47.828	35.704	29.774	1.000
1397.572	47.816	35.695	29.768	1.000
1398.573	47.813	35.718	29.778	1.000
1400.572	47.823	35.720	29.775	1.000
1401.573	47.817	35.714	29.780	1.000
1402.573	47.827	35.718	29.773	1.000
1404.573	47.820	35.718	29.789	1.000
1405.573	47.828	35.733	29.802	1.000
1406.573	47.833	35.734	29.793	1.000
1407.573	47.836	35.742	29.803	1.000
1408.573	47.839	35.740	29.788	1.000
1409.573	47.838	35.755	29.794	1.000
1411.573	47.853	35.752	29.801	1.000
1412.573	47.852	35.752	29.812	1.000
1414.573	47.852	35.764	29.808	1.000
1416.571	47.857	35.765	29.819	1.000
1417.571	47.870	35.783	29.826	1.000
1418.572	47.867	35.783	29.826	1.000
1419.573	47.865	35.773	29.831	1.000
1420.573	47.877	35.780	29.823	1.000
1421.573	47.869	35.785	29.828	1.000
1422.573	47.878	35.804	29.822	1.000
1424.573	47.878	35.790	29.827	1.000
1426.572	47.876	35.817	29.836	1.000
1427.573	47.893	35.820	29.832	1.000
1429.572	47.895	35.822	29.838	1.000
1430.573	47.881	35.830	29.842	1.000
1432.572	47.898	35.824	29.839	1.000
1433.572	47.913	35.831	29.851	1.000
1434.572	47.910	35.842	29.863	1.000
1435.573	47.906	35.838	29.853	1.000
1437.573	47.920	35.853	29.866	1.000
1438.573	47.912	35.853	29.871	1.000
1439.573	47.932	35.844	29.876	1.000
1441.573	47.922	35.858	29.874	1.000
1442.573	47.930	35.864	29.883	1.000
1443.573	47.930	35.879	29.876	1.000
1444.573	47.930	35.880	29.896	1.000
1446.573	47.946	35.878	29.884	1.000
1447.573	47.943	35.887	29.899	1.000
1449.572	47.952	35.893	29.892	1.000
1450.572	47.948	35.890	29.889	1.000
1452.571	47.961	35.899	29.893	1.000
1453.573	47.950	35.905	29.912	1.000
1455.573	47.971	35.907	29.896	1.000
1457.572	47.965	35.927	29.892	1.000
1458.573	47.980	35.928	29.902	1.000
1459.573	47.979	35.919	29.910	1.000
1460.573	47.974	35.910	29.900	1.000
1462.573	47.992	35.938	29.915	1.000
1464.572	47.979	35.925	29.902	1.000
1465.572	47.979	35.937	29.908	1.000
1467.572	47.992	35.945	29.921	1.000
1468.572	47.985	35.932	29.913	1.000
1469.572	47.988	35.962	29.908	1.000
1470.572	48.003	35.953	29.921	1.000
1471.573	47.997	35.953	29.924	1.000
1472.573	48.006	35.955	29.923	1.000
1473.573	48.007	35.964	29.917	1.000
1474.573	48.008	35.958	29.922	1.000
1475.573	48.009	35.977	29.920	1.000
1476.573	48.009	35.982	29.933	1.000
1477.573	48.013	35.969	29.930	1.000
1478.573	48.004	35.972	29.931	1.000
1479.573	48.005	35.972	29.935	1.000
1481.571	48.014	35.990	29.942	1.000
1482.571	48.013	35.975	29.938	1.000
1483.571	47.999	35.992	29.928	1.000
1484.572	48.021	35.977	29.950	1.000
1486.571	48.017	35.991	29.940	1.000
1487.572	48.029	35.997	29.949	1.000
1488.572	48.019	35.992	29.951	1.000
1489.572	48.005	35.993	29.942	1.000
1490.573	48.028	36.000	29.942	1.000
1491.573	48.016	36.001	29.951	1.000
1493.573	48.024	36.018	29.946	1.000
1494.573	48.030	36.013	29.948	1.000
1496.571	48.041	36.020	29.965	1.000
1497.572	48.030	36.025	29.962	1.000
1499.572	48.030	36.027	29.955	1.000
1501.572	48.035	36.032	29.960	1.000
1502.572	48.034	36.033	29.975	1.000
1503.572	48.024	36.044	29.973	1.000
1504.572	48.038	36.036	29.961	1.000
1505.573	48.037	36.030	29.970	1.000
1506.573	48.028	36.059	29.971	1.000
1507.573	48.028	36.039	29.967	1.000
1509.572	48.027	36.050	29.970	1.000
1510.573	48.030	36.058	29.980	1.000
1511.573	48.051	36.059	29.978	1.000
1513.571	48.047	36.053	29.967	1.000
1514.571	48.051	36.048	29.980	1.000
1515.571	48.041	36.072	29.974	1.000
1516.571	48.045	36.071	29.968	1.000
1517.571	48.056	36.072	29.978	1.000
1518.572	48.030	36.057	29.976	1.000
1519.572	48.037	36.075	29.988	1.000
1520.572	48.039	36.074	29.989	1.000
1522.571	48.043	36.064	29.981	1.000
1523.572	48.055	36.071	29.978	1.000
1524.573	48.043	36.080	29.995	1.000
1526.573	48.043	36.084	29.986	1.000
1528.571	48.052	36.085	29.986	1.000
1529.572	48.062	36.086	29.994	1.000
1531.572	48.049	36.084	30.001	1.000
1533.572	48.054	36.109	29.998	1.000
1534.572	48.062	36.110	29.998	1.000
1535.572	48.082	36.113	30.005	1.000
1537.572	48.063	36.110	30.006	1.000
1539.571	48.072	36.123	29.997	1.000
1540.573	48.073	36.117	30.020	1.000
1541.573	48.058	36.130	30.012	1.000
1543.573	48.077	36.130	30.009	1.000
1545.571	48.088	36.132	30.023	1.000
1546.571	48.085	36.151	30.030	1.000
1547.571	48.075	36.144	30.033	1.000
1548.571	48.072	36.149	30.035	1.000
1549.571	48.083	36.147	30.026	1.000
1550.571	48.078	36.148	30.032	1.000
1551.571	48.093	36.150	30.034	1.000
1552.572	48.087	36.153	30.032	1.000
1554.572	48.095	36.172	30.036	1.000
1556.572	48.091	36.157	30.035	1.000
1557.573	48.094	36.179	30.052	1.000
1559.573	48.100	36.171	30.041	1.000
1561.572	48.109	36.184	30.040	1.000
1563.572	48.094	36.179	30.045	1.000
1565.571	48.112	36.199	30.058	1.000
1566.571	48.115	36.189	30.066	1.000
1567.572	48.113	36.207	30.060	1.000
1569.572	48.122	36.205	30.062	1.000
1570.572	48.119	36.213	30.067	1.000
1571.572	48.127	36.219	30.064	1.000
1573.572	48.118	36.203	30.072	1.000
1575.572	48.127	36.230	30.076	1.000
1577.571	48.133	36.238	30.084	1.000
1578.571	48.135	36.229	30.074	1.000
1579.571	48.147	36.237	30.066	1.000
1580.571	48.146	36.238	30.073	1.000
1581.571	48.142	36.249	30.076	1.000
1582.571	48.158	36.241	30.086	1.000
1583.571	48.136	36.242	30.093	1.000
1584.571	48.132	36.238	30.080	1.000
1585.571	48.160	36.241	30.094	1.000
1586.571	48.146	36.245	30.089	1.000
1587.571	48.156	36.240	30.086	1.000
1588.572	48.142	36.243	30.089	1.000
1590.572	48.144	36.265	30.093	1.000
1592.572	48.157	36.258	30.095	1.000
1593.572	48.147	36.258	30.097	1.000
1594.572	48.163	36.269	30.093	1.000
1595.572	48.160	36.276	30.096	1.000
1596.572	48.171	36.281	30.102	1.000
1597.572	48.159	36.286	30.109	1.000
1599.572	48.166	36.289	30.104	1.000
1600.572	48.169	36.274	30.097	1.000
1602.571	48.167	36.287	30.105	1.000
1603.571	48.163	36.305	30.125	1.000
1604.571	48.172	36.308	30.111	1.000
1605.572	48.179	36.314	30.109	1.000
1606.572	48.176	36.314	30.111	1.000
1607.572	48.185	36.332	30.111	1.000
1609.570	48.181	36.329	30.105	1.000
1610.571	48.182	36.333	30.117	1.000
1611.572	48.178	36.338	30.124	1.000
1613.571	48.180	36.335	30.123	1.000
1614.572	48.179	36.342	30.131	1.000
1616.571	48.196	36.356	30.143	1.000
1617.571	48.177	36.350	30.122	1.000
1618.571	48.197	36.354	30.132	1.000
1619.571	48.194	36.363	30.119	1.000
1620.571	48.193	36.367	30.135	1.000
1621.572	48.201	36.359	30.137	1.000
1622.572	48.196	36.382	30.130	1.000
1623.572	48.199	36.379	30.132	1.000
1625.570	48.193	36.384	30.151	1.000
1626.571	48.200	36.387	30.142	1.000
1627.572	48.192	36.391	30.145	1.000
1628.572	48.206	36.397	30.151	1.000
1629.572	48.198	36.397	30.149	1.000
1630.572	48.208	36.410	30.153	1.000
1632.571	48.221	36.406	30.161	1.000
1633.572	48.203	36.430	30.155	1.000
1635.571	48.224	36.432	30.158	1.000
1636.572	48.221	36.438	30.161	1.000
1637.572	48.229	36.434	30.172	1.000
1639.572	48.234	36.445	30.166	1.000
1641.570	48.237	36.455	30.187	1.000
1642.570	48.236	36.468	30.179	1.000
1643.570	48.233	36.474	30.181	1.000
1644.570	48.228	36.461	30.175	1.000
1645.571	48.240	36.483	30.180	1.000
1646.571	48.238	36.473	30.179	1.000
1647.571	48.253	36.492	30.200	1.000
1648.571	48.256	36.492	30.196	1.000
1649.571	48.251	36.501	30.197	1.000
1650.572	48.258	36.513	30.202	1.000
1652.571	48.264	36.503	30.194	1.000
1653.571	48.254	36.515	30.205	1.000
1654.571	48.247	36.516	30.204	1.000
1655.571	48.260	36.536	30.205	1.000
1656.571	48.254	36.527	30.202	1.000
1657.571	48.258	36.516	30.212	1.000
1658.571	48.262	36.545	30.214	1.000
1660.570	48.272	36.548	30.208	1.000
1661.571	48.277	36.558	30.225	1.000
1662.572	48.287	36.551	30.215	1.000
1663.572	48.280	36.556	30.225	1.000
1664.572	48.274	36.562	30.226	1.000
1665.572	48.294	36.570	30.222	1.000
1666.572	48.284	36.582	30.225	1.000
1667.572	48.283	36.589	30.227	1.000
1668.572	48.277	36.584	30.233	1.000
1669.572	48.285	36.583	30.244	1.000
1671.572	48.305	36.586	30.244	1.000
1673.570	48.300	36.605	30.251	1.000
1674.570	48.305	36.621	30.243	1.000
1675.570	48.302	36.621	30.253	1.000
1676.570	48.307	36.628	30.260	1.000
1677.570	48.301	36.631	30.251	1.000
1678.570	48.307	36.630	30.254	1.000
1679.570	48.324	36.626	30.258	1.000
1680.572	48.330	36.633	30.260	1.000
1682.571	48.313	36.650	30.262	1.000
1683.571	48.326	36.651	30.262	1.000
1684.571	48.324	36.651	30.270	1.000
1685.571	48.321	36.659	30.267	1.000
1686.571	48.330	36.660	30.267	1.000
1687.571	48.329	36.671	30.271	1.000
1688.571	48.340	36.664	30.280	1.000
1689.571	48.336	36.694	30.280	1.000
1690.571	48.330	36.673	30.280	1.000
1691.571	48.335	36.690	30.286	1.000
1692.571	48.336	36.690	30.283	1.000
1693.571	48.340	36.692	30.290	1.000
1695.571	48.338	36.701	30.290	1.000
1696.571	48.329	36.709	30.290	1.000
1697.572	48.341	36.706	30.293	1.000
1699.572	48.341	36.707	30.295	1.000
1701.571	48.343	36.728	30.295	1.000
1702.572	48.352	36.738	30.301	1.000
1704.571	48.340	36.746	30.305	1.000
1706.571	48.364	36.742	30.303	1.000
1707.571	48.343	36.754	30.309	1.000
1709.571	48.356	36.765	30.308	1.000
1710.571	48.335	36.759	30.323	1.000
1712.570	48.342	36.767	30.310	1.000
1713.570	48.352	36.773	30.327	1.000
1714.570	48.356	36.781	30.324	1.000
1715.571	48.362	36.787	30.329	1.000
1716.571	48.367	36.794	30.326	1.000
1717.571	48.361	36.799	30.335	1.000
1718.571	48.362	36.805	30.332	1.000
1719.571	48.369	36.805	30.335	1.000
1720.571	48.366	36.792	30.327	1.000
1722.570	48.369	36.809	30.339	1.000
1723.571	48.374	36.814	30.344	1.000
1724.571	48.369	36.819	30.341	1.000
1725.571	48.376	36.820	30.346	1.000
1726.571	48.371	36.834	30.359	1.000
1727.571	48.364	36.830	30.342	1.000
1729.570	48.364	36.842	30.358	1.000
1730.570	48.376	36.830	30.356	1.000
1731.571	48.398	36.841	30.366	1.000
1732.572	48.374	36.849	30.369	1.000
1734.571	48.383	36.868	30.366	1.000
1735.572	48.383	36.867	30.371	1.000
1737.570	48.389	36.882	30.387	1.000
1738.570	48.397	36.884	30.372	1.000
1739.571	48.398	36.896	30.381	1.000
1740.571	48.387	36.891	30.380	1.000
1742.571	48.391	36.881	30.387	1.000
1743.571	48.400	36.898	30.379	1.000
1745.570	48.404	36.913	30.386	1.000
1746.571	48.412	36.911	30.400	1.000
1748.571	48.402	36.917	30.394	1.000
1750.571	48.396	36.927	30.395	1.000
1751.571	48.410	36.932	30.404	1.000
1752.572	48.406	36.936	30.419	1.000
1754.570	48.420	36.942	30.403	1.000
1755.571	48.409	36.952	30.421	1.000
1756.571	48.408	36.952	30.414	1.000
1757.571	48.414	36.958	30.418	1.000
1759.571	48.429	36.964	30.425	1.000
1760.571	48.410	36.964	30.429	1.000
1762.571	48.425	36.974	30.429	1.000
1763.571	48.428	36.973	30.433	1.000
1764.571	48.417	36.986	30.440	1.000
1765.571	48.424	36.988	30.450	1.000
1767.571	48.432	36.991	30.433	1.000
1768.571	48.436	36.996	30.448	1.000
1769.571	48.437	36.996	30.447	1.000
1770.571	48.436	36.997	30.449	1.000
1772.571	48.436	36.999	30.442	1.000
1774.570	48.445	37.023	30.456	1.000
1775.570	48.436	37.008	30.464	1.000
1776.570	48.449	37.018	30.460	1.000
1777.570	48.454	37.030	30.481	1.000
1778.570	48.446	37.033	30.468	1.000
1779.570	48.453	37.046	30.477	1.000
1780.570	48.442	37.045	30.484	1.000
1781.570	48.452	37.040	30.482	1.000
1782.570	48.447	37.050	30.473	1.000
1783.570	48.451	37.053	30.488	1.000
1784.571	48.453	37.064	30.490	1.000
1785.571	48.471	37.069	30.487	1.000
1786.571	48.454	37.061	30.491	1.000
1788.571	48.462	37.075	30.513	1.000
1789.571	48.471	37.071	30.512	1.000
1790.571	48.458	37.075	30.520	1.000
1792.571	48.485	37.091	30.517	1.000
1793.571	48.471	37.095	30.516	1.000
1794.571	48.470	37.089	30.516	1.000
1795.571	48.488	37.108	30.526	1.000
1796.571	48.482	37.118	30.523	1.000
1797.571	48.471	37.109	30.539	1.000
1798.571	48.481	37.105	30.529	1.000
1800.570	48.479	37.113	30.533	1.000
1802.571	48.498	37.135	30.540	1.000
1804.570	48.501	37.138	30.532	1.000
1805.570	48.510	37.137	30.535	1.000
1806.570	48.523	37.144	30.560	1.000
1807.570	48.525	37.134	30.548	1.000
1808.571	48.516	37.141	30.557	1.000
1810.571	48.515	37.153	30.566	1.000
1811.571	48.528	37.159	30.561	1.000
1813.570	48.524	37.161	30.567	1.000
1814.571	48.534	37.173	30.584	1.000
1815.571	48.521	37.164	30.581	1.000
1817.570	48.534	37.185	30.588	1.000
1819.570	48.536	37.192	30.585	1.000
1820.571	48.532	37.198	30.587	1.000
1822.571	48.541	37.196	30.603	1.000
1823.571	48.543	37.197	30.605	1.000
1825.571	48.551	37.215	30.594	1.000
1826.571	48.553	37.210	30.616	1.000
1827.571	48.563	37.212	30.614	1.000
1828.571	48.560	37.233	30.614	1.000
1830.571	48.553	37.235	30.603	1.000
1832.570	48.555	37.235	30.619	1.000
1834.570	48.569	37.240	30.629	1.000
1835.570	48.567	37.241	30.638	1.000
1836.570	48.560	37.247	30.624	1.000
1837.570	48.580	37.253	30.640	1.000
1838.571	48.570	37.252	30.651	1.000
1839.571	48.581	37.267	30.650	1.000
1841.570	48.585	37.263	30.642	1.000
1842.571	48.589	37.272	30.657	1.000
1844.571	48.589	37.285	30.666	1.000
1846.570	48.598	37.284	30.673	1.000
1847.570	48.602	37.291	30.662	1.000
1848.571	48.606	37.286	30.672	1.000
1850.570	48.606	37.301	30.661	1.000
1852.570	48.628	37.301	30.685	1.000
1853.570	48.600	37.304	30.696	1.000
1854.570	48.642	37.311	30.678	1.000
1855.571	48.635	37.310	30.691	1.000
1857.571	48.646	37.340	30.692	1.000
1858.571	48.645	37.323	30.682	1.000
1859.571	48.631	37.328	30.703	1.000
1860.571	48.645	37.350	30.692	1.000
1861.571	48.648	37.332	30.697	1.000
1862.571	48.633	37.348	30.693	1.000
1863.571	48.638	37.346	30.694	1.000
1864.571	48.636	37.343	30.704	1.000
1865.571	48.645	37.348	30.701	1.000
1867.569	48.656	37.345	30.709	1.000
1868.569	48.658	37.334	30.722	1.000
1869.569	48.658	37.354	30.715	1.000
1870.569	48.659	37.341	30.724	1.000
1871.569	48.671	37.354	30.723	1.000
1872.571	48.660	37.355	30.732	1.000
1874.571	48.664	37.355	30.744	1.000
1876.570	48.661	37.368	30.748	1.000
1877.570	48.676	37.380	30.740	1.000
1878.571	48.674	37.378	30.743	1.000
1880.571	48.675	37.388	30.759	1.000
1881.571	48.673	37.409	30.749	1.000
1883.569	48.707	37.397	30.753	1.000
1884.570	48.690	37.396	30.761	1.000
1885.570	48.703	37.410	30.755	1.000
1886.570	48.683	37.387	30.753	1.000
1887.570	48.698	37.401	30.776	1.000
1888.570	48.696	37.429	30.765	1.000
1889.570	48.719	37.407	30.793	1.000
1890.570	48.717	37.419	30.801	1.000
1891.571	48.710	37.428	30.807	1.000
1893.571	48.721	37.418	30.810	1.000
1894.571	48.721	37.416	30.820	1.000
1896.571	48.709	37.435	30.830	1.000
1897.571	48.716	37.432	30.837	1.000
1899.569	48.736	37.453	30.844	1.000
1900.569	48.733	37.456	30.859	1.000
1901.569	48.732	37.449	30.861	1.000
1902.570	48.748	37.446	30.870	1.000
1904.569	48.739	37.462	30.884	1.000
1905.569	48.753	37.466	30.905	1.000
1906.570	48.749	37.468	30.919	1.000
1907.571	48.744	37.489	30.904	1.000
1908.571	48.747	37.479	30.913	1.000
1909.571	48.751	37.482	30.925	1.000
1911.570	48.763	37.489	30.941	1.000
1912.570	48.762	37.493	30.951	1.000
1913.570	48.771	37.497	30.963	1.000
1914.570	48.770	37.503	30.966	1.000
1915.570	48.764	37.505	30.963	1.000
1917.570	48.786	37.511	30.977	1.000
1918.570	48.781	37.518	31.007	1.000
1919.570	48.782	37.517	30.995	1.000
1921.570	48.792	37.512	31.023	1.000
1923.570	48.791	37.525	31.030	1.000
1924.570	48.812	37.539	31.034	1.000
1925.571	48.813	37.535	31.052	1.000
1927.571	48.804	37.540	31.066	1.000
1929.569	48.815	37.555	31.076	1.000
1930.569	48.813	37.555	31.086	1.000
1931.569	48.838	37.571	31.098	1.000
1932.569	48.822	37.568	31.101	1.000
1933.569	48.825	37.586	31.096	1.000
1934.569	48.825	37.559	31.114	1.000
1935.569	48.838	37.574	31.121	1.000
1936.569	48.834	37.578	31.119	1.000
1937.569	48.835	37.580	31.124	1.000
1938.569	48.843	37.587	31.122	1.000
1939.569	48.839	37.588	31.148	1.000
1940.569	48.844	37.604	31.154	1.000
1941.569	48.846	37.589	31.144	1.000
1942.570	48.841	37.603	31.167	1.000
1943.571	48.850	37.588	31.174	1.000
1944.571	48.846	37.606	31.188	1.000
1946.570	48.862	37.617	31.197	1.000
1947.570	48.854	37.618	31.200	1.000
1948.570	48.863	37.605	31.207	1.000
1949.570	48.864	37.627	31.223	1.000
1951.569	48.874	37.641	31.232	1.000
1952.569	48.881	37.645	31.242	1.000
1953.570	48.878	37.633	31.247	1.000
1954.570	48.869	37.650	31.239	1.000
1955.570	48.891	37.640	31.273	1.000
1956.570	48.889	37.656	31.270	1.000
1958.569	48.894	37.662	31.270	1.000
1959.570	48.906	37.665	31.286	1.000
1960.571	48.906	37.655	31.281	1.000
1961.571	48.899	37.674	31.295	1.000
1963.569	48.914	37.688	31.303	1.000
1964.569	48.920	37.688	31.315	1.000
1965.569	48.915	37.686	31.319	1.000
1966.569	48.928	37.696	31.326	1.000
1967.569	48.923	37.696	31.328	1.000
1968.569	48.937	37.689	31.347	1.000
1969.569	48.938	37.715	31.343	1.000
1970.569	48.936	37.709	31.355	1.000
1971.569	48.932	37.709	31.363	1.000
1972.569	48.939	37.716	31.367	1.000
1973.570	48.935	37.725	31.382	1.000
1975.569	48.951	37.727	31.385	1.000
1976.570	48.964	37.737	31.392	1.000
1977.571	48.952	37.738	31.397	1.000
1979.569	48.961	37.739	31.423	1.000
1980.569	48.966	37.738	31.418	1.000
1981.570	48.967	37.744	31.424	1.000
1983.569	48.979	37.763	31.443	1.000
1984.570	48.984	37.755	31.450	1.000
1986.570	48.990	37.767	31.454	1.000
1987.570	48.983	37.771	31.444	1.000
1989.569	48.997	37.781	31.480	1.000
1990.570	49.001	37.777	31.485	1.000
1992.569	49.009	37.789	31.507	1.000
1993.570	49.024	37.792	31.498	1.000
1995.569	49.031	37.797	31.517	1.000
1996.569	49.042	37.808	31.521	1.000
1997.569	49.035	37.811	31.540	1.000
1998.569	49.036	37.810	31.524	1.000
1999.569	49.041	37.823	31.530	1.000
2000.569	49.062	37.826	31.551	1.000
2001.569	49.049	37.830	31.557	1.000
2002.569	49.060	37.821	31.559	1.000
2003.569	49.066	37.828	31.552	1.000
2004.570	49.065	37.834	31.561	1.000
2006.569	49.075	37.837	31.579	1.000
2007.570	49.082	37.847	31.579	1.000
2009.570	49.077	37.863	31.587	1.000
2011.569	49.092	37.861	31.602	1.000
2012.570	49.101	37.868	31.606	1.000
2013.570	49.096	37.862	31.609	1.000
2014.570	49.114	37.884	31.617	1.000
2015.570	49.095	37.875	31.613	1.000
2016.570	49.119	37.895	31.620	1.000
2017.570	49.112	37.883	31.630	1.000
2019.570	49.119	37.897	31.628	1.000
2021.569	49.131	37.896	31.658	1.000
2022.570	49.125	37.905	31.661	1.000
2023.570	49.135	37.919	31.671	1.000
2025.570	49.144	37.921	31.664	1.000
2027.569	49.164	37.937	31.693	1.000
2029.568	49.144	37.932	31.705	1.000
2030.570	49.167	37.937	31.692	1.000
2032.569	49.174	37.953	31.697	1.000
2033.569	49.166	37.957	31.708	1.000
2034.569	49.173	37.954	31.715	1.000
2035.569	49.174	37.961	31.718	1.000
2036.569	49.188	37.951	31.722	1.000
2037.569	49.192	37.960	31.733	1.000
2038.569	49.193	37.961	31.734	1.000
2039.569	49.195	37.964	31.733	1.000
2040.570	49.205	37.980	31.742	1.000
2042.568	49.206	37.980	31.762	1.000
2043.568	49.214	37.994	31.761	1.000
2044.569	49.206	37.972	31.769	1.000
2046.569	49.228	37.979	31.778	1.000
2047.570	49.221	38.004	31.770	1.000
2049.570	49.229	38.006	31.784	1.000
2050.570	49.236	38.015	31.781	1.000
2051.570	49.240	38.012	31.795	1.000
2053.570	49.251	38.038	31.807	1.000
2054.570	49.248	38.031	31.796	1.000
2056.570	49.256	38.031	31.815	1.000
2057.570	49.255	38.037	31.821	1.000
2059.568	49.274	38.046	31.821	1.000
2060.568	49.275	38.031	31.825	1.000
2061.568	49.285	38.056	31.831	1.000
2062.568	49.289	38.058	31.843	1.000
2063.568	49.274	38.077	31.837	1.000
2064.568	49.286	38.066	31.856	1.000
2065.569	49.290	38.076	31.856	1.000
2066.570	49.300	38.064	31.855	1.000
2067.570	49.291	38.071	31.860	1.000
2069.569	49.313	38.088	31.854	1.000
2070.569	49.318	38.091	31.878	1.000
2071.569	49.318	38.109	31.882	1.000
2072.569	49.329	38.106	31.889	1.000
2073.569	49.330	38.095	31.895	1.000
2074.569	49.339	38.106	31.903	1.000
2075.569	49.333	38.109	31.900	1.000
2076.569	49.351	38.121	31.907	1.000
2077.569	49.341	38.122	31.892	1.000
2078.569	49.363	38.126	31.899	1.000
2079.569	49.358	38.140	31.903	1.000
2080.569	49.364	38.137	31.912	1.000
2082.569	49.367	38.153	31.927	1.000
2083.570	49.370	38.151	31.921	1.000
2084.570	49.372	38.153	31.932	1.000
2085.570	49.376	38.158	31.939	1.000
2086.570	49.385	38.168	31.953	1.000
2088.569	49.394	38.164	31.950	1.000
2089.570	49.410	38.177	31.951	1.000
2090.570	49.405	38.169	31.959	1.000
2092.568	49.411	38.192	31.981	1.000
2093.568	49.412	38.189	31.983	1.000
2094.569	49.417	38.188	31.985	1.000
2096.569	49.418	38.200	31.993	1.000
2098.569	49.442	38.207	31.993	1.000
2099.570	49.444	38.210	32.020	1.000
2100.570	49.443	38.206	32.020	1.000
2102.569	49.452	38.221	32.016	1.000
2103.569	49.462	38.226	32.019	1.000
2104.569	49.455	38.219	32.020	1.000
2105.569	49.454	38.239	32.032	1.000
2106.569	49.468	38.229	32.031	1.000
2107.569	49.477	38.245	32.031	1.000
2108.569	49.474	38.246	32.044	1.000
2109.569	49.484	38.246	32.042	1.000
2110.569	49.488	38.244	32.049	1.000
2111.569	49.473	38.247	32.061	1.000
2112.569	49.496	38.263	32.072	1.000
2113.569	49.505	38.280	32.077	1.000
2114.569	49.498	38.272	32.084	1.000
2115.569	49.502	38.287	32.083	1.000
2117.570	49.528	38.288	32.104	1.000
2119.570	49.526	38.295	32.102	1.000
2120.570	49.546	38.292	32.100	1.000
2121.570	49.539	38.294	32.108	1.000
2122.570	49.542	38.305	32.103	1.000
2124.569	49.543	38.316	32.120	1.000
2125.569	49.561	38.309	32.124	1.000
2126.569	49.551	38.319	32.140	1.000
2128.568	49.563	38.332	32.120	1.000
2129.568	49.559	38.332	32.149	1.000
2130.568	49.579	38.327	32.144	1.000
2131.568	49.587	38.347	32.155	1.000
2132.568	49.587	38.343	32.169	1.000
2133.569	49.603	38.344	32.151	1.000
2134.569	49.593	38.357	32.176	1.000
2135.569	49.583	38.361	32.171	1.000
2136.569	49.604	38.365	32.177	1.000
2137.569	49.607	38.365	32.191	1.000
2138.570	49.604	38.361	32.192	1.000
2140.569	49.611	38.369	32.201	1.000
2141.569	49.623	38.378	32.196	1.000
2142.569	49.635	38.394	32.202	1.000
2143.569	49.630	38.395	32.208	1.000
2144.569	49.642	38.384	32.216	1.000
2145.569	49.647	38.415	32.222	1.000
2146.569	49.650	38.410	32.227	1.000
2147.569	49.648	38.403	32.240	1.000
2148.569	49.656	38.419	32.229	1.000
2149.569	49.657	38.419	32.241	1.000
2150.569	49.661	38.421	32.257	1.000
2151.569	49.673	38.421	32.247	1.000
2152.570	49.675	38.430	32.270	1.000
2153.570	49.680	38.444	32.259	1.000
2154.570	49.688	38.439	32.265	1.000
2156.568	49.684	38.449	32.285	1.000
2157.569	49.695	38.454	32.286	1.000
2158.569	49.707	38.456	32.288	1.000
2160.569	49.708	38.464	32.308	1.000
2161.569	49.708	38.472	32.300	1.000
2163.569	49.737	38.474	32.321	1.000
2164.569	49.728	38.485	32.313	1.000
2166.568	49.731	38.491	32.326	1.000
2167.568	49.743	38.504	32.328	1.000
2168.569	49.737	38.503	32.341	1.000
2169.569	49.757	38.508	32.331	1.000
2170.569	49.765	38.506	32.345	1.000
2171.569	49.771	38.516	32.348	1.000
2173.569	49.769	38.527	32.355	1.000
2175.569	49.791	38.531	32.372	1.000
2176.569	49.789	38.528	32.388	1.000
2177.569	49.798	38.544	32.382	1.000
2178.569	49.802	38.543	32.379	1.000
2179.569	49.805	38.542	32.389	1.000
2180.569	49.809	38.564	32.390	1.000
2181.569	49.814	38.565	32.398	1.000
2182.569	49.815	38.569	32.403	1.000
2184.569	49.824	38.555	32.403	1.000
2185.569	49.830	38.574	32.413	1.000
2187.569	49.845	38.585	32.418	1.000
2189.568	49.856	38.587	32.421	1.000
2190.568	49.862	38.594	32.431	1.000
2191.569	49.857	38.598	32.431	1.000
2192.569	49.866	38.595	32.443	1.000
2194.568	49.880	38.606	32.436	1.000
2195.568	49.884	38.612	32.443	1.000
2196.568	49.877	38.611	32.436	1.000
2197.568	49.891	38.617	32.451	1.000
2198.569	49.882	38.627	32.461	1.000
2199.569	49.881	38.631	32.468	1.000
2201.568	49.905	38.633	32.469	1.000
2202.568	49.891	38.652	32.474	1.000
2203.568	49.907	38.631	32.471	1.000
2204.570	49.902	38.649	32.480	1.000
2206.569	49.903	38.651	32.479	1.000
2207.569	49.913	38.651	32.482	1.000
2209.569	49.909	38.651	32.475	1.000
2210.569	49.918	38.676	32.499	1.000
2212.569	49.922	38.660	32.503	1.000
2213.569	49.940	38.680	32.501	1.000
2215.569	49.931	38.674	32.509	1.000
2217.569	49.929	38.676	32.525	1.000
2218.569	49.938	38.673	32.528	1.000
2220.568	49.944	38.695	32.524	1.000
2222.568	49.949	38.708	32.539	1.000
2223.569	49.947	38.697	32.532	1.000
2225.569	49.958	38.705	32.543	1.000
2227.568	49.969	38.722	32.556	1.000
2228.569	49.966	38.704	32.558	1.000
2229.569	49.972	38.726	32.565	1.000
2231.569	49.981	38.722	32.573	1.000
2232.569	49.986	38.725	32.580	1.000
2234.568	49.990	38.743	32.571	1.000
2236.567	49.997	38.738	32.585	1.000
2237.568	49.997	38.746	32.588	1.000
2238.568	50.002	38.749	32.591	1.000
2239.569	50.001	38.751	32.604	1.000
2241.569	50.013	38.766	32.604	1.000
2242.569	50.015	38.756	32.608	1.000
2243.569	50.011	38.778	32.600	1.000
2244.569	50.029	38.767	32.621	1.000
2245.569	50.023	38.781	32.627	1.000
2246.569	50.021	38.780	32.637	1.000
2247.569	50.034	38.782	32.644	1.000
2248.569	50.031	38.797	32.625	1.000
2249.569	50.039	38.778	32.654	1.000
2250.569	50.039	38.789	32.657	1.000
2252.568	50.043	38.792	32.653	1.000
2253.568	50.059	38.792	32.657	2.000
2254.568	50.061	38.823	32.667	2.000
2256.567	50.048	38.809	32.679	2.000
2257.568	50.050	38.821	32.699	2.000
2258.568	50.041	38.818	32.675	2.000
2259.569	50.003	38.819	32.687	2.000
2261.568	49.982	38.831	32.685	2.000
